	Wavelength (nm)		Flux (erg/s/cm2/nm)	
             1.0000000000             0.2786701322
             1.1000000000             0.2675216794
             1.2000000000             0.2563732564
             1.3000000000             0.2452248037
             1.4000000000             0.2340763509
             1.5000000000             0.2311937362
             1.6000000000             0.2779060304
             1.7000000000             0.3328841925
             1.8000000000             0.3878623247
             1.9000000000             0.4428404868
             2.0000000000             0.4978185892
             2.1000000000             0.5527967215
             2.2000000000             0.6077749133
             2.3000000000             0.6627529860
             2.4000000000             0.7177311182
             2.5000000000             0.7624176145
             2.6000000000             0.7453539371
             2.7000000000             0.7179985642
             2.8000000000             0.6906433105
             2.9000000000             0.6632879376
             3.0000000000             0.6359326243
             3.1000000000             0.6085772514
             3.2000000000             0.5812219381
             3.3000000000             0.5538666248
             3.4000000000             0.5265112519
             3.5000000000             0.5048854351
             3.6000000000             0.5176367760
             3.7000000000             0.5361175537
             3.8000000000             0.5545983911
             3.9000000000             0.5730792284
             4.0000000000             0.5915600657
             4.1000000000             0.6100409031
             4.2000000000             0.6285216808
             4.3000000000             0.6470024586
             4.4000000000             0.6654832959
             4.5000000000             0.6876573563
             4.6000000000             0.7319905758
             4.7000000000             0.7800168395
             4.8000000000             0.8280431628
             4.9000000000             0.8760694861
             5.0000000000             0.9240958691
             5.1000000000             0.9721223116
             5.2000000000             1.0201486349
             5.3000000000             1.0681749582
             5.4000000000             1.1162011623
             5.5000000000             1.1564904451
             5.6000000000             1.1503564119
             5.7000000000             1.1364853382
             5.8000000000             1.1226142645
             5.9000000000             1.1087430716
             6.0000000000             1.0948719978
             6.1000000000             1.0810008049
             6.2000000000             1.0671297312
             6.3000000000             1.0532585382
             6.4000000000             1.0393874645
             6.5000000000             1.0277572870
             6.6000000000             1.0295735598
             6.7000000000             1.0336308479
             6.8000000000             1.0376881361
             6.9000000000             1.0417454243
             7.0000000000             1.0458027124
             7.1000000000             1.0498600006
             7.2000000000             1.0539172888
             7.3000000000             1.0579745770
             7.4000000000             1.0620319843
             7.5000000000             1.0602980852
             7.6000000000             1.0238175392
             7.7000000000             0.9815458655
             7.8000000000             0.9392742515
             7.9000000000             0.8970026374
             8.0000000000             0.8547309041
             8.1000000000             0.8124592900
             8.2000000000             0.7701876163
             8.3000000000             0.7279158235
             8.4000000000             0.6856442094
             8.5000000000             0.6495524645
             8.6000000000             0.6505398750
             8.7000000000             0.6577072144
             8.8000000000             0.6648745537
             8.9000000000             0.6720418930
             9.0000000000             0.6792092323
             9.1000000000             0.6863765717
             9.2000000000             0.6935439110
             9.3000000000             0.7007112503
             9.4000000000             0.7078785896
             9.5000000000             0.7082862258
             9.6000000000             0.6681359410
             9.7000000000             0.6212260127
             9.8000000000             0.5743158460
             9.9000000000             0.5274059176
            10.0000000000             0.4804959297
            10.1000000000             0.4335860014
            10.2000000000             0.3866760433
            10.3000000000             0.3397658765
            10.4000000000             0.2928559184
            10.5000000000             0.2509173155
            10.6000000000             0.2388064563
            10.7000000000             0.2316669524
            10.8000000000             0.2245274037
            10.9000000000             0.2173878849
            11.0000000000             0.2102483660
            11.1000000000             0.2031088471
            11.2000000000             0.1959693432
            11.3000000000             0.1888297945
            11.4000000000             0.1816902757
            11.5000000000             0.1746151298
            11.6000000000             0.1679262221
            11.7000000000             0.1613016725
            11.8000000000             0.1546771079
            11.9000000000             0.1480525732
            12.0000000000             0.1414280236
            12.1000000000             0.1348034889
            12.2000000000             0.1281789392
            12.3000000000             0.1215543747
            12.4000000000             0.1149298325
            12.5000000000             0.1090733334
            12.6000000000             0.1078250334
            12.7000000000             0.1073447689
            12.8000000000             0.1068645045
            12.9000000000             0.1063842401
            13.0000000000             0.1059039831
            13.1000000000             0.1054237187
            13.2000000000             0.1049434543
            13.3000000000             0.1044631898
            13.4000000000             0.1039829329
            13.5000000000             0.1063395217
            13.6000000000             0.1257171333
            13.7000000000             0.1479316056
            13.8000000000             0.1701461822
            13.9000000000             0.1923606545
            14.0000000000             0.2145751268
            14.1000000000             0.2367895991
            14.2000000000             0.2590040565
            14.3000000000             0.2812186480
            14.4000000000             0.3034331203
            14.5000000000             0.3236623406
            14.6000000000             0.3319803178
            14.7000000000             0.3383130431
            14.8000000000             0.3446457982
            14.9000000000             0.3509785235
            15.0000000000             0.3573112488
            15.1000000000             0.3636439741
            15.2000000000             0.3699766994
            15.3000000000             0.3763094544
            15.4000000000             0.3826422095
            15.5000000000             0.3898688853
            15.6000000000             0.4024593830
            15.7000000000             0.4159438610
            15.8000000000             0.4294283986
            15.9000000000             0.4429128468
            16.0000000000             0.4563972652
            16.1000000000             0.4698817134
            16.2000000000             0.4833662510
            16.3000000000             0.4968507886
            16.4000000000             0.5103353262
            16.5000000000             0.5443299413
            16.6000000000             0.7013875246
            16.7000000000             0.8789569736
            16.8000000000             1.0565264225
            16.9000000000             1.2340959311
            17.0000000000             1.4116636515
            17.1000000000             1.5892314911
            17.2000000000             1.7668009996
            17.3000000000             1.9443703890
            17.4000000000             2.1219398975
            17.5000000000             2.2627794743
            17.6000000000             2.1832468510
            17.7000000000             2.0669846535
            17.8000000000             1.9507226944
            17.9000000000             1.8344606161
            18.0000000000             1.7181997299
            18.1000000000             1.6019387245
            18.2000000000             1.4856766462
            18.3000000000             1.3694146872
            18.4000000000             1.2531526089
            18.5000000000             1.1517080069
            18.6000000000             1.1391623020
            18.7000000000             1.1414330006
            18.8000000000             1.1437035799
            18.9000000000             1.1459742784
            19.0000000000             1.1482448578
            19.1000000000             1.1505155563
            19.2000000000             1.1527862549
            19.3000000000             1.1550568342
            19.4000000000             1.1573275328
            19.5000000000             1.1517786980
            19.6000000000             1.0993123055
            19.7000000000             1.0390259027
            19.8000000000             0.9787393808
            19.9000000000             0.9184529781
            20.0000000000             0.8581671119
            20.1000000000             0.7978812456
            20.2000000000             0.7375947833
            20.3000000000             0.6773083210
            20.4000000000             0.6170219183
            20.5000000000             0.5626387596
            20.6000000000             0.5436724424
            20.7000000000             0.5306087136
            20.8000000000             0.5175449848
            20.9000000000             0.5044813156
            21.0000000000             0.4914177060
            21.1000000000             0.4783540964
            21.2000000000             0.4652903974
            21.3000000000             0.4522266686
            21.4000000000             0.4391629696
            21.5000000000             0.4298135340
            21.6000000000             0.4427494109
            21.7000000000             0.4593995810
            21.8000000000             0.4760497808
            21.9000000000             0.4926999807
            22.0000000000             0.5093500018
            22.1000000000             0.5260000825
            22.2000000000             0.5426502228
            22.3000000000             0.5593004227
            22.4000000000             0.5759506226
            22.5000000000             0.5867929459
            22.6000000000             0.5627881885
            22.7000000000             0.5329754353
            22.8000000000             0.5031626821
            22.9000000000             0.4733499587
            23.0000000000             0.4435374737
            23.1000000000             0.4137250185
            23.2000000000             0.3839122653
            23.3000000000             0.3540995121
            23.4000000000             0.3242867589
            23.5000000000             0.3036799431
            23.6000000000             0.3383078575
            23.7000000000             0.3821418583
            23.8000000000             0.4259758592
            23.9000000000             0.4698098600
            24.0000000000             0.5136434436
            24.1000000000             0.5574769974
            24.2000000000             0.6013110280
            24.3000000000             0.6451449990
            24.4000000000             0.6889789701
            24.5000000000             0.7331617475
            24.6000000000             0.7794394493
            24.7000000000             0.8260667324
            24.8000000000             0.8726940155
            24.9000000000             0.9193213582
            25.0000000000             0.9659482241
            25.1000000000             1.0125750303
            25.2000000000             1.0592023134
            25.3000000000             1.1058297157
            25.4000000000             1.1524569988
            25.5000000000             1.1832207441
            25.6000000000             1.1188046932
            25.7000000000             1.0385246277
            25.8000000000             0.9582447410
            25.9000000000             0.8779647946
            26.0000000000             0.7976856232
            26.1000000000             0.7174063921
            26.2000000000             0.6371264458
            26.3000000000             0.5568464994
            26.4000000000             0.4765665531
            26.5000000000             0.4099937081
            26.6000000000             0.4256599844
            26.7000000000             0.4550328553
            26.8000000000             0.4844057560
            26.9000000000             0.5137786269
            27.0000000000             0.5431512594
            27.1000000000             0.5725238323
            27.2000000000             0.6018967628
            27.3000000000             0.6312696338
            27.4000000000             0.6606425047
            27.5000000000             0.7197070718
            27.6000000000             0.9569255710
            27.7000000000             1.2238385677
            27.8000000000             1.4907516241
            27.9000000000             1.7576646805
            28.0000000000             2.0245752335
            28.1000000000             2.2914855480
            28.2000000000             2.5583987236
            28.3000000000             2.8253116608
            28.4000000000             3.0922245979
            28.5000000000             3.2867438793
            28.6000000000             3.0469102859
            28.7000000000             2.7346825600
            28.8000000000             2.4224548340
            28.9000000000             2.1102271080
            29.0000000000             1.7980022430
            29.1000000000             1.4857773781
            29.2000000000             1.1735496521
            29.3000000000             0.8613219261
            29.4000000000             0.5490941405
            29.5000000000             0.3797397614
            29.6000000000             1.0676188469
            29.7000000000             1.8983763456
            29.8000000000             2.7291338444
            29.9000000000             3.5598912239
            30.0000000000             4.3906407356
            30.1000000000             5.2213902473
            30.2000000000             6.0521478653
            30.3000000000             6.8829050064
            30.4000000000             7.7136626244
            30.5000000000             8.3457326889
            30.6000000000             7.7857141495
            30.7000000000             7.0270090103
            30.8000000000             6.2683033943
            30.9000000000             5.5095982552
            31.0000000000             4.7509002686
            31.1000000000             3.9922022820
            31.2000000000             3.2334969044
            31.3000000000             2.4747915268
            31.4000000000             1.7160862684
            31.5000000000             1.0567162037
            31.6000000000             0.9933214188
            31.7000000000             1.0292549133
            31.8000000000             1.0651884079
            31.9000000000             1.1011219025
            32.0000000000             1.1370551586
            32.1000000000             1.1729886532
            32.2000000000             1.2089221478
            32.3000000000             1.2448549271
            32.4000000000             1.2807884216
            32.5000000000             1.3117790222
            32.6000000000             1.3131108284
            32.7000000000             1.3094996214
            32.8000000000             1.3058885336
            32.9000000000             1.3022774458
            33.0000000000             1.2986662388
            33.1000000000             1.2950550318
            33.2000000000             1.2914439440
            33.3000000000             1.2878328562
            33.4000000000             1.2842216492
            33.5000000000             1.2718324661
            33.6000000000             1.2067737579
            33.7000000000             1.1329370737
            33.8000000000             1.0591017008
            33.9000000000             0.9852649570
            34.0000000000             0.9114282131
            34.1000000000             0.8375914693
            34.2000000000             0.7637547851
            34.3000000000             0.6899194121
            34.4000000000             0.6160826683
            34.5000000000             0.5504723191
            34.6000000000             0.5342213511
            34.7000000000             0.5261967182
            34.8000000000             0.5181722641
            34.9000000000             0.5101476312
            35.0000000000             0.5021229982
            35.1000000000             0.4940983653
            35.2000000000             0.4860737324
            35.3000000000             0.4780492783
            35.4000000000             0.4700246453
            35.5000000000             0.4957630038
            35.6000000000             0.7240843773
            35.7000000000             0.9861687422
            35.8000000000             1.2482481003
            35.9000000000             1.5103323460
            36.0000000000             1.7724167109
            36.1000000000             2.0345010757
            36.2000000000             2.2965853214
            36.3000000000             2.5586647987
            36.4000000000             2.8207490444
            36.5000000000             3.0128045082
            36.6000000000             2.7846760750
            36.7000000000             2.4865186214
            36.8000000000             2.1883671284
            36.9000000000             1.8902096748
            37.0000000000             1.5920523405
            37.1000000000             1.2938950062
            37.2000000000             0.9957376122
            37.3000000000             0.6975859404
            37.4000000000             0.3994285762
            37.5000000000             0.1378118694
            37.6000000000             0.0954445675
            37.7000000000             0.0896179080
            37.8000000000             0.0837913677
            37.9000000000             0.0779647082
            38.0000000000             0.0721380487
            38.1000000000             0.0663113892
            38.2000000000             0.0604847334
            38.3000000000             0.0546581894
            38.4000000000             0.0488315299
            38.5000000000             0.0437247902
            38.6000000000             0.0429376774
            38.7000000000             0.0428704806
            38.8000000000             0.0428032875
            38.9000000000             0.0427360944
            39.0000000000             0.0426688977
            39.1000000000             0.0426017009
            39.2000000000             0.0425345078
            39.3000000000             0.0424673147
            39.4000000000             0.0424001180
            39.5000000000             0.0426910520
            39.6000000000             0.0451308265
            39.7000000000             0.0479287319
            39.8000000000             0.0507265851
            39.9000000000             0.0535244904
            40.0000000000             0.0563223958
